# Atmospheric transmission in the optical: 310-1100nm
# 3.0mm H2O,  sec z = 2.0
# Adopted average extinction used for Rayleigh scattering,
# no dependence on H2O content included for Rayleigh scattering.
# Atmospheric absorption lines for 600-800nm are based on observations 
# from McDonald Observatory, scaled for H2O content and airmass.
# Atmospheric absorption lines for 800-1100nm are from ATRAN models
# run by Tom Geballe.
# No atmospheric absorption lines are included for wavelengths < 600nm
# 
# Author: Inger Jorgensen
# Created: 21 Feb 2001
# 
#  Table mkskytrans_opt.tab  Wed 17:07:00 21-Feb-2001
# wavelength tr_3020
#     [nm]         

      310.0  0.0801
      320.0  0.2209
      340.0  0.3906
      360.0  0.5055
      380.0  0.5761
      400.0  0.6304
      450.0  0.7310
      500.0  0.7868
      550.0  0.8010
      580.3  0.8062
      580.8  0.8062
      581.3  0.8063
      581.7  0.8063
      582.2  0.8064
      582.7  0.8064
      583.2  0.8065
      583.6  0.8065
      584.1  0.8066
      584.6  0.8067
      585.1  0.8067
      585.5  0.8068
      586.0  0.8068
      586.5  0.8069
      586.9  0.8069
      587.4  0.8070
      587.9  0.8071
      588.4  0.8071
      588.8  0.8072
      589.3  0.8072
      589.8  0.8073
      590.2  0.8074
      590.7  0.8074
      591.2  0.8075
      591.7  0.8076
      592.1  0.8076
      592.6  0.8077
      593.1  0.8078
      593.5  0.8078
      594.0  0.8079
      594.5  0.8080
      595.0  0.8080
      595.4  0.8081
      595.9  0.8082
      596.4  0.8083
      596.9  0.8083
      597.3  0.8084
      597.8  0.8085
      598.3  0.8086
      598.7  0.8086
      599.2  0.8087
      599.7  0.8088
      600.2  0.8089
      600.6  0.8089
      601.1  0.8090
      601.6  0.8091
      602.0  0.8092
      602.5  0.8093
      603.0  0.8093
      603.5  0.8094
      603.9  0.8095
      604.4  0.8096
      604.9  0.8097
      605.4  0.8098
      605.8  0.8098
      606.3  0.8099
      606.8  0.8100
      607.2  0.8101
      607.7  0.8102
      608.2  0.8103
      608.7  0.8104
      609.1  0.8104
      609.6  0.8105
      610.1  0.8106
      610.5  0.8107
      611.0  0.8108
      611.5  0.8109
      612.0  0.8110
      612.4  0.8111
      612.9  0.8112
      613.4  0.8113
      613.8  0.8114
      614.3  0.8115
      614.8  0.8116
      615.3  0.8116
      615.7  0.8117
      616.2  0.8118
      616.7  0.8119
      617.2  0.8120
      617.6  0.8121
      618.1  0.8122
      618.6  0.8123
      619.0  0.8124
      619.5  0.8125
      620.0  0.8126
      620.5  0.8120
      620.9  0.8114
      621.4  0.8128
      621.9  0.8116
      622.3  0.8105
      622.8  0.8103
      623.3  0.8090
      623.8  0.8089
      624.2  0.8093
      624.7  0.8082
      625.2  0.8106
      625.6  0.8099
      626.1  0.8078
      626.6  0.8074
      627.1  0.8002
      627.5  0.7931
      628.0  0.7896
      628.5  0.7890
      629.0  0.7927
      629.4  0.7929
      629.9  0.7947
      630.4  0.7965
      630.8  0.7976
      631.3  0.8014
      631.8  0.8026
      632.3  0.8042
      632.7  0.8058
      633.2  0.8073
      633.7  0.8076
      634.1  0.8082
      634.6  0.8098
      635.1  0.8104
      635.6  0.8111
      636.0  0.8117
      636.5  0.8130
      637.0  0.8114
      637.5  0.8130
      637.9  0.8169
      638.4  0.8170
      638.9  0.8171
      639.3  0.8173
      639.8  0.8174
      640.3  0.8175
      640.8  0.8176
      641.2  0.8178
      641.7  0.8179
      642.2  0.8180
      642.6  0.8181
      643.1  0.8183
      643.6  0.8184
      644.1  0.8185
      644.5  0.8186
      645.0  0.8188
      645.5  0.8189
      645.9  0.8190
      646.4  0.8192
      646.9  0.8193
      647.4  0.8194
      647.8  0.8195
      648.3  0.8197
      648.8  0.8198
      649.3  0.8199
      649.7  0.8201
      650.2  0.8202
      650.7  0.8203
      651.1  0.8205
      651.6  0.8206
      652.1  0.8207
      652.6  0.8209
      653.0  0.8210
      653.5  0.8212
      654.0  0.8213
      654.4  0.8214
      654.9  0.8216
      655.4  0.8217
      655.9  0.8218
      656.3  0.8220
      656.8  0.8221
      657.3  0.8223
      657.7  0.8224
      658.2  0.8225
      658.7  0.8227
      659.2  0.8228
      659.6  0.8230
      660.1  0.8231
      660.6  0.8233
      661.1  0.8234
      661.5  0.8235
      662.0  0.8237
      662.5  0.8238
      662.9  0.8240
      663.4  0.8241
      663.9  0.8243
      664.4  0.8244
      664.8  0.8246
      665.3  0.8247
      665.8  0.8248
      666.2  0.8250
      666.7  0.8251
      667.2  0.8253
      667.7  0.8254
      668.1  0.8256
      668.6  0.8257
      669.1  0.8259
      669.6  0.8260
      670.0  0.8262
      670.5  0.8263
      671.0  0.8265
      671.4  0.8266
      671.9  0.8268
      672.4  0.8269
      672.9  0.8271
      673.3  0.8273
      673.8  0.8274
      674.3  0.8276
      674.7  0.8277
      675.2  0.8279
      675.7  0.8280
      676.2  0.8282
      676.6  0.8283
      677.1  0.8285
      677.6  0.8286
      678.0  0.8288
      678.5  0.8290
      679.0  0.8291
      679.5  0.8293
      679.9  0.8294
      680.4  0.8296
      680.9  0.8298
      681.4  0.8299
      681.8  0.8301
      682.3  0.8302
      682.8  0.8304
      683.2  0.8306
      683.7  0.8307
      684.2  0.8309
      684.7  0.8310
      685.1  0.8312
      685.6  0.8122
      686.1  0.7434
      686.5  0.6820
      687.0  0.6676
      687.5  0.6856
      688.0  0.7111
      688.4  0.7261
      688.9  0.7291
      689.4  0.7392
      689.9  0.7510
      690.3  0.7649
      690.8  0.7830
      691.3  0.7967
      691.7  0.8081
      692.2  0.8136
      692.7  0.8157
      693.2  0.8168
      693.6  0.8216
      694.1  0.8248
      694.6  0.8244
      695.0  0.8274
      695.5  0.8327
      696.0  0.8350
      696.5  0.8352
      696.9  0.8353
      697.4  0.8355
      697.9  0.8357
      698.3  0.8359
      698.8  0.8360
      699.3  0.8362
      699.8  0.8364
      700.2  0.8365
      700.7  0.8367
      701.2  0.8369
      701.7  0.8371
      702.1  0.8372
      702.6  0.8374
      703.1  0.8376
      703.5  0.8377
      704.0  0.8379
      704.5  0.8381
      705.0  0.8383
      705.4  0.8384
      705.9  0.8386
      706.4  0.8388
      706.8  0.8390
      707.3  0.8391
      707.8  0.8393
      708.3  0.8395
      708.7  0.8397
      709.2  0.8398
      709.7  0.8400
      710.1  0.8402
      710.6  0.8404
      711.1  0.8405
      711.6  0.8407
      712.0  0.8409
      712.5  0.8411
      713.0  0.8413
      713.5  0.8414
      713.9  0.8410
      714.4  0.8339
      714.9  0.8315
      715.3  0.8324
      715.8  0.8237
      716.3  0.8078
      716.8  0.7896
      717.2  0.7714
      717.7  0.7648
      718.2  0.7629
      718.6  0.7564
      719.1  0.7536
      719.6  0.7606
      720.1  0.7844
      720.5  0.8038
      721.0  0.8112
      721.5  0.8184
      722.0  0.8095
      722.4  0.7945
      722.9  0.7868
      723.4  0.7817
      723.8  0.7783
      724.3  0.7806
      724.8  0.7817
      725.3  0.7853
      725.7  0.7863
      726.2  0.7873
      726.7  0.7824
      727.1  0.7834
      727.6  0.7844
      728.1  0.7911
      728.6  0.7939
      729.0  0.7948
      729.5  0.7979
      730.0  0.7988
      730.4  0.7997
      730.9  0.8084
      731.4  0.8154
      731.9  0.8162
      732.3  0.8171
      732.8  0.8182
      733.3  0.8190
      733.8  0.8220
      734.2  0.8228
      734.7  0.8236
      735.2  0.8236
      735.6  0.8243
      736.1  0.8251
      736.6  0.8297
      737.1  0.8305
      737.5  0.8364
      738.0  0.8366
      738.5  0.8368
      738.9  0.8370
      739.4  0.8419
      739.9  0.8421
      740.4  0.8423
      740.8  0.8473
      741.3  0.8475
      741.8  0.8477
      742.3  0.8479
      742.7  0.8529
      743.2  0.8531
      743.7  0.8533
      744.1  0.8534
      744.6  0.8536
      745.1  0.8538
      745.6  0.8540
      746.0  0.8542
      746.5  0.8544
      747.0  0.8546
      747.4  0.8548
      747.9  0.8550
      748.4  0.8552
      748.9  0.8553
      749.3  0.8555
      749.8  0.8557
      750.3  0.8559
      750.7  0.8561
      751.2  0.8563
      751.7  0.8565
      752.2  0.8567
      752.6  0.8569
      753.1  0.8571
      753.6  0.8573
      754.1  0.8574
      754.5  0.8576
      755.0  0.8578
      755.5  0.8526
      755.9  0.8447
      756.4  0.8451
      756.9  0.8440
      757.4  0.8461
      757.8  0.8301
      758.3  0.7495
      758.8  0.6186
      759.2  0.4862
      759.7  0.4017
      760.2  0.4145
      760.7  0.4910
      761.1  0.5360
      761.6  0.5424
      762.1  0.5270
      762.5  0.5091
      763.0  0.5228
      763.5  0.5650
      764.0  0.6133
      764.4  0.6602
      764.9  0.7037
      765.4  0.7369
      765.9  0.7595
      766.3  0.7821
      766.8  0.8071
      767.3  0.8287
      767.7  0.8444
      768.2  0.8498
      768.7  0.8509
      769.2  0.8512
      769.6  0.8529
      770.1  0.8628
      770.6  0.8642
      771.0  0.8644
      771.5  0.8646
      772.0  0.8648
      772.5  0.8650
      772.9  0.8652
      773.4  0.8654
      773.9  0.8656
      774.4  0.8658
      774.8  0.8660
      775.3  0.8661
      775.8  0.8663
      776.2  0.8665
      776.7  0.8667
      777.2  0.8669
      777.7  0.8671
      778.1  0.8673
      778.6  0.8675
      779.1  0.8677
      779.5  0.8679
      780.0  0.8681
      780.5  0.8683
      781.0  0.8685
      781.4  0.8687
      781.9  0.8689
      782.4  0.8691
      782.8  0.8693
      783.3  0.8694
      783.8  0.8696
      784.3  0.8698
      784.7  0.8700
      785.2  0.8702
      785.7  0.8704
      786.2  0.8706
      786.6  0.8708
      787.1  0.8710
      787.6  0.8712
      788.0  0.8714
      788.5  0.8716
      789.0  0.8718
      789.5  0.8720
      789.9  0.8722
      790.4  0.8724
      790.9  0.8725
      791.3  0.8727
      791.8  0.8729
      792.3  0.8731
      792.8  0.8733
      793.2  0.8735
      793.7  0.8737
      794.2  0.8739
      794.6  0.8741
      795.1  0.8743
      795.6  0.8745
      796.1  0.8747
      796.5  0.8749
      797.0  0.8751
      797.5  0.8753
      798.0  0.8754
      798.4  0.8756
      798.9  0.8758
      799.4  0.8760
      799.8  0.8762
      800.0  0.8661
      800.5  0.8681
      801.0  0.8683
      801.5  0.8691
      802.0  0.8707
      802.5  0.8699
      803.0  0.8701
      803.5  0.8711
      804.0  0.8715
      804.5  0.8718
      805.0  0.8739
      805.5  0.8761
      806.0  0.8765
      806.5  0.8764
      807.0  0.8764
      807.5  0.8767
      808.0  0.8767
      808.5  0.8759
      809.0  0.8754
      809.5  0.8744
      810.0  0.8745
      810.5  0.8755
      811.0  0.8736
      811.5  0.8712
      812.0  0.8701
      812.5  0.8676
      813.0  0.8604
      813.5  0.8483
      814.0  0.8452
      814.5  0.8418
      815.0  0.8330
      815.5  0.8248
      816.0  0.8152
      816.5  0.8006
      817.0  0.8088
      817.5  0.8191
      818.0  0.8104
      818.5  0.8203
      819.0  0.8270
      819.5  0.8264
      820.0  0.8308
      820.5  0.8530
      821.0  0.8687
      821.5  0.8650
      822.0  0.8540
      822.5  0.8167
      823.0  0.7667
      823.5  0.7902
      824.0  0.8407
      824.5  0.8565
      825.0  0.8669
      825.5  0.8617
      826.0  0.8515
      826.5  0.8612
      827.0  0.8648
      827.5  0.8441
      828.0  0.8337
      828.5  0.8402
      829.0  0.8421
      829.5  0.8464
      830.0  0.8543
      830.5  0.8544
      831.0  0.8609
      831.5  0.8637
      832.0  0.8529
      832.5  0.8558
      833.0  0.8684
      833.5  0.8706
      834.0  0.8711
      834.5  0.8773
      835.0  0.8813
      835.5  0.8794
      836.0  0.8790
      836.5  0.8817
      837.0  0.8839
      837.5  0.8839
      838.0  0.8846
      838.5  0.8864
      839.0  0.8872
      839.5  0.8884
      840.0  0.8889
      840.5  0.8886
      841.0  0.8875
      841.5  0.8882
      842.0  0.8894
      842.5  0.8912
      843.0  0.8914
      843.5  0.8906
      844.0  0.8907
      844.5  0.8918
      845.0  0.8928
      845.5  0.8935
      846.0  0.8935
      846.5  0.8937
      847.0  0.8944
      847.5  0.8946
      848.0  0.8941
      848.5  0.8940
      849.0  0.8942
      849.5  0.8945
      850.0  0.8948
      850.5  0.8949
      851.0  0.8946
      851.5  0.8942
      852.0  0.8949
      852.5  0.8957
      853.0  0.8963
      853.5  0.8964
      854.0  0.8962
      854.5  0.8965
      855.0  0.8971
      855.5  0.8973
      856.0  0.8976
      856.5  0.8981
      857.0  0.8982
      857.5  0.8981
      858.0  0.8986
      858.5  0.8990
      859.0  0.8991
      859.5  0.8993
      860.0  0.8996
      860.5  0.8998
      861.0  0.8999
      861.5  0.9001
      862.0  0.9003
      862.5  0.9005
      863.0  0.9007
      863.5  0.9008
      864.0  0.9010
      864.5  0.9012
      865.0  0.9014
      865.5  0.9016
      866.0  0.9018
      866.5  0.9019
      867.0  0.9021
      867.5  0.9023
      868.0  0.9025
      868.5  0.9027
      869.0  0.9028
      869.5  0.9030
      870.0  0.9032
      870.5  0.9033
      871.0  0.9035
      871.5  0.9037
      872.0  0.9039
      872.5  0.9040
      873.0  0.9042
      873.5  0.9044
      874.0  0.9046
      874.5  0.9047
      875.0  0.9049
      875.5  0.9051
      876.0  0.9052
      876.5  0.9054
      877.0  0.9056
      877.5  0.9057
      878.0  0.9058
      878.5  0.9059
      879.0  0.9061
      879.5  0.9064
      880.0  0.9064
      880.5  0.9064
      881.0  0.9065
      881.5  0.9067
      882.0  0.9067
      882.5  0.9069
      883.0  0.9071
      883.5  0.9071
      884.0  0.9074
      884.5  0.9077
      885.0  0.9078
      885.5  0.9072
      886.0  0.9064
      886.5  0.9071
      887.0  0.9078
      887.5  0.9080
      888.0  0.9070
      888.5  0.9074
      889.0  0.9088
      889.5  0.9086
      890.0  0.9080
      890.5  0.9083
      891.0  0.9088
      891.5  0.9082
      892.0  0.9068
      892.5  0.9063
      893.0  0.9017
      893.5  0.8986
      894.0  0.8991
      894.5  0.8946
      895.0  0.8848
      895.5  0.8714
      896.0  0.8627
      896.5  0.8460
      897.0  0.8367
      897.5  0.8358
      898.0  0.8440
      898.5  0.8279
      899.0  0.7802
      899.5  0.7933
     900.0000      0.9962795    
     900.0200      0.9960367    
     900.0400      0.9959611    
     900.0600      0.9948095    
     900.0800      0.9934056    
     900.1000      0.9917295    
     900.1199      0.9845499    
     900.1400      0.9791554    
     900.1600      0.9818132    
     900.1800      0.9790518    
     900.2000      0.9645146    
     900.2200      0.9170945    
     900.2400      0.7702417    
     900.2599      0.4933414    
     900.2800      0.3684498    
     900.3000      0.5203535    
     900.3200      0.6414733    
     900.3400      0.8039933    
     900.3600      0.9291076    
     900.3799      0.9689670    
     900.4000      0.9821506    
     900.4199      0.9873124    
     900.4400      0.9893751    
     900.4600      0.9899690    
     900.4800      0.9897624    
     900.5000      0.9886625    
     900.5200      0.9857495    
     900.5400      0.9780886    
     900.5599      0.9484403    
     900.5800      0.8250523    
     900.6000      0.5844873    
     900.6200      0.4599453    
     900.6400      0.5323827    
     900.6600      0.7602590    
     900.6800      0.9259269    
     900.7000      0.9741538    
     900.7200      0.9857400    
     900.7400      0.9898081    
     900.7600      0.9918642    
     900.7800      0.9918652    
     900.8000      0.9845487    
     900.8199      0.9760847    
     900.8400      0.9834283    
     900.8599      0.9905055    
     900.8800      0.9860266    
     900.9000      0.9533429    
     900.9200      0.8771829    
     900.9400      0.8127578    
     900.9600      0.7782966    
     900.9800      0.7433876    
     900.9999      0.6699814    
     901.0200      0.7381822    
     901.0400      0.8577513    
     901.0600      0.9488201    
     901.0800      0.9840257    
     901.1000      0.9872074    
     901.1199      0.9625725    
     901.1400      0.8939942    
     901.1600      0.8852498    
     901.1800      0.9552219    
     901.2000      0.9888478    
     901.2200      0.9944748    
     901.2400      0.9941335    
     901.2599      0.9906954    
     901.2800      0.9897454    
     901.2999      0.9919592    
     901.3200      0.9905052    
     901.3400      0.9853626    
     901.3600      0.9771515    
     901.3800      0.9442804    
     901.4000      0.8041182    
     901.4200      0.5279907    
     901.4399      0.4694302    
     901.4600      0.7328501    
     901.4800      0.9207968    
     901.5000      0.9726166    
     901.5200      0.9845636    
     901.5400      0.9873801    
     901.5599      0.9860703    
     901.5800      0.9754290    
     901.6000      0.9656597    
     901.6200      0.9785912    
     901.6400      0.9881717    
     901.6600      0.9894005    
     901.6800      0.9921409    
     901.7000      0.9935302    
     901.7200      0.9930224    
     901.7399      0.9917789    
     901.7600      0.9899175    
     901.7800      0.9868178    
     901.8000      0.9810621    
     901.8200      0.9700957    
     901.8400      0.9439729    
     901.8600      0.8780343    
     901.8799      0.7011005    
     901.9000      0.3801334    
     901.9200      0.2123547    
     901.9400      0.4084512    
     901.9600      0.7283558    
     901.9800      0.8960782    
     901.9999      0.9503700    
     902.0200      0.9595816    
     902.0400      0.9306049    
     902.0600      0.9099350    
     902.0800      0.9481151    
     902.1000      0.9807517    
     902.1200      0.9905943    
     902.1400      0.9930040    
     902.1600      0.9939892    
     902.1799      0.9946104    
     902.2000      0.9949230    
     902.2200      0.9944656    
     902.2400      0.9905739    
     902.2600      0.9824574    
     902.2800      0.9835342    
     902.3000      0.9911209    
     902.3199      0.9930649    
     902.3400      0.9904606    
     902.3600      0.9880921    
     902.3800      0.9887627    
     902.4000      0.9863406    
     902.4200      0.9770163    
     902.4399      0.9621171    
     902.4600      0.9257643    
     902.4799      0.7826478    
     902.5000      0.5131422    
     902.5200      0.4882727    
     902.5400      0.7527961    
     902.5600      0.9191360    
     902.5800      0.9663639    
     902.6000      0.9799904    
     902.6199      0.9854649    
     902.6400      0.9878626    
     902.6600      0.9879599    
     902.6800      0.9834065    
     902.7000      0.9736102    
     902.7200      0.9696090    
     902.7400      0.9651248    
     902.7599      0.9374913    
     902.7800      0.8976914    
     902.8000      0.8017623    
     902.8200      0.5405003    
     902.8400      0.3731736    
     902.8600      0.5935587    
     902.8799      0.8465319    
     902.9000      0.9426091    
     902.9199      0.9689223    
     902.9400      0.9765294    
     902.9600      0.9826109    
     902.9800      0.9890064    
     903.0000      0.9924829    
     903.0200      0.9938786    
     903.0400      0.9946313    
     903.0599      0.9948825    
     903.0800      0.9934120    
     903.1000      0.9901740    
     903.1200      0.9899217    
     903.1400      0.9862113    
     903.1600      0.9510049    
     903.1800      0.8866416    
     903.2000      0.9045428    
     903.2200      0.9676104    
     903.2400      0.9879661    
     903.2600      0.9842829    
     903.2800      0.9775580    
     903.3000      0.9828056    
     903.3199      0.9852363    
     903.3400      0.9646747    
     903.3599      0.8672613    
     903.3800      0.6984376    
     903.4000      0.7312958    
     903.4200      0.8984356    
     903.4400      0.9679431    
     903.4600      0.9775964    
     903.4800      0.9833840    
     903.4999      0.9926200    
     903.5200      0.9965142    
