# Atmospheric transmission in the optical: 310-1100nm
# 5.0mm H2O,  sec z = 1.5
# Adopted average extinction used for Rayleigh scattering,
# no dependence on H2O content included for Rayleigh scattering.
# Atmospheric absorption lines for 600-800nm are based on observations 
# from McDonald Observatory, scaled for H2O content and airmass.
# Atmospheric absorption lines for 800-1100nm are from ATRAN models
# run by Tom Geballe.
# No atmospheric absorption lines are included for wavelengths < 600nm
# 
# Author: Inger Jorgensen
# Created: 21 Feb 2001
# 
#  Table mkskytrans_opt.tab  Wed 17:07:00 21-Feb-2001
# wavelength tr_5015
#     [nm]         

      310.0  0.1505
      320.0  0.3222
      340.0  0.4941
      360.0  0.5995
      380.0  0.6612
      400.0  0.7075
      450.0  0.7906
      500.0  0.8354
      550.0  0.8467
      580.3  0.8508
      580.8  0.8509
      581.3  0.8509
      581.7  0.8509
      582.2  0.8510
      582.7  0.8510
      583.2  0.8511
      583.6  0.8511
      584.1  0.8511
      584.6  0.8512
      585.1  0.8512
      585.5  0.8513
      586.0  0.8513
      586.5  0.8514
      586.9  0.8514
      587.4  0.8515
      587.9  0.8515
      588.4  0.8516
      588.8  0.8516
      589.3  0.8517
      589.8  0.8517
      590.2  0.8518
      590.7  0.8518
      591.2  0.8519
      591.7  0.8519
      592.1  0.8520
      592.6  0.8520
      593.1  0.8521
      593.5  0.8521
      594.0  0.8522
      594.5  0.8522
      595.0  0.8523
      595.4  0.8524
      595.9  0.8524
      596.4  0.8525
      596.9  0.8525
      597.3  0.8526
      597.8  0.8526
      598.3  0.8527
      598.7  0.8528
      599.2  0.8528
      599.7  0.8529
      600.2  0.8529
      600.6  0.8530
      601.1  0.8531
      601.6  0.8531
      602.0  0.8532
      602.5  0.8533
      603.0  0.8533
      603.5  0.8534
      603.9  0.8535
      604.4  0.8535
      604.9  0.8536
      605.4  0.8537
      605.8  0.8537
      606.3  0.8538
      606.8  0.8539
      607.2  0.8539
      607.7  0.8540
      608.2  0.8541
      608.7  0.8541
      609.1  0.8542
      609.6  0.8543
      610.1  0.8543
      610.5  0.8544
      611.0  0.8545
      611.5  0.8546
      612.0  0.8546
      612.4  0.8547
      612.9  0.8548
      613.4  0.8548
      613.8  0.8549
      614.3  0.8550
      614.8  0.8551
      615.3  0.8552
      615.7  0.8552
      616.2  0.8553
      616.7  0.8554
      617.2  0.8555
      617.6  0.8555
      618.1  0.8556
      618.6  0.8557
      619.0  0.8558
      619.5  0.8559
      620.0  0.8559
      620.5  0.8553
      620.9  0.8547
      621.4  0.8561
      621.9  0.8549
      622.3  0.8537
      622.8  0.8536
      623.3  0.8523
      623.8  0.8522
      624.2  0.8525
      624.7  0.8514
      625.2  0.8537
      625.6  0.8531
      626.1  0.8510
      626.6  0.8506
      627.1  0.8436
      627.5  0.8368
      628.0  0.8333
      628.5  0.8328
      629.0  0.8364
      629.4  0.8365
      629.9  0.8382
      630.4  0.8400
      630.8  0.8410
      631.3  0.8447
      631.8  0.8458
      632.3  0.8473
      632.7  0.8488
      633.2  0.8503
      633.7  0.8505
      634.1  0.8511
      634.6  0.8526
      635.1  0.8531
      635.6  0.8538
      636.0  0.8543
      636.5  0.8556
      637.0  0.8541
      637.5  0.8555
      637.9  0.8593
      638.4  0.8594
      638.9  0.8595
      639.3  0.8596
      639.8  0.8597
      640.3  0.8598
      640.8  0.8599
      641.2  0.8600
      641.7  0.8601
      642.2  0.8602
      642.6  0.8603
      643.1  0.8604
      643.6  0.8605
      644.1  0.8606
      644.5  0.8607
      645.0  0.8608
      645.5  0.8609
      645.9  0.8610
      646.4  0.8611
      646.9  0.8612
      647.4  0.8613
      647.8  0.8614
      648.3  0.8615
      648.8  0.8616
      649.3  0.8617
      649.7  0.8618
      650.2  0.8619
      650.7  0.8620
      651.1  0.8621
      651.6  0.8622
      652.1  0.8623
      652.6  0.8624
      653.0  0.8625
      653.5  0.8626
      654.0  0.8627
      654.4  0.8628
      654.9  0.8630
      655.4  0.8631
      655.9  0.8632
      656.3  0.8633
      656.8  0.8634
      657.3  0.8635
      657.7  0.8636
      658.2  0.8637
      658.7  0.8638
      659.2  0.8639
      659.6  0.8641
      660.1  0.8642
      660.6  0.8643
      661.1  0.8644
      661.5  0.8645
      662.0  0.8646
      662.5  0.8647
      662.9  0.8648
      663.4  0.8650
      663.9  0.8651
      664.4  0.8652
      664.8  0.8653
      665.3  0.8654
      665.8  0.8655
      666.2  0.8656
      666.7  0.8658
      667.2  0.8659
      667.7  0.8660
      668.1  0.8661
      668.6  0.8662
      669.1  0.8663
      669.6  0.8665
      670.0  0.8666
      670.5  0.8667
      671.0  0.8668
      671.4  0.8669
      671.9  0.8671
      672.4  0.8672
      672.9  0.8673
      673.3  0.8674
      673.8  0.8675
      674.3  0.8677
      674.7  0.8678
      675.2  0.8679
      675.7  0.8680
      676.2  0.8681
      676.6  0.8683
      677.1  0.8684
      677.6  0.8685
      678.0  0.8686
      678.5  0.8688
      679.0  0.8689
      679.5  0.8690
      679.9  0.8691
      680.4  0.8693
      680.9  0.8694
      681.4  0.8695
      681.8  0.8696
      682.3  0.8698
      682.8  0.8699
      683.2  0.8700
      683.7  0.8701
      684.2  0.8703
      684.7  0.8704
      685.1  0.8705
      685.6  0.8507
      686.1  0.7791
      686.5  0.7153
      687.0  0.7003
      687.5  0.7189
      688.0  0.7454
      688.4  0.7609
      688.9  0.7640
      689.4  0.7745
      689.9  0.7867
      690.3  0.8012
      690.8  0.8199
      691.3  0.8341
      691.7  0.8459
      692.2  0.8516
      692.7  0.8538
      693.2  0.8548
      693.6  0.8597
      694.1  0.8631
      694.6  0.8626
      695.0  0.8657
      695.5  0.8711
      696.0  0.8735
      696.5  0.8736
      696.9  0.8738
      697.4  0.8739
      697.9  0.8740
      698.3  0.8742
      698.8  0.8743
      699.3  0.8744
      699.8  0.8746
      700.2  0.8747
      700.7  0.8748
      701.2  0.8750
      701.7  0.8751
      702.1  0.8752
      702.6  0.8754
      703.1  0.8755
      703.5  0.8756
      704.0  0.8758
      704.5  0.8759
      705.0  0.8760
      705.4  0.8762
      705.9  0.8763
      706.4  0.8764
      706.8  0.8766
      707.3  0.8767
      707.8  0.8769
      708.3  0.8770
      708.7  0.8771
      709.2  0.8773
      709.7  0.8774
      710.1  0.8775
      710.6  0.8777
      711.1  0.8778
      711.6  0.8780
      712.0  0.8781
      712.5  0.8782
      713.0  0.8784
      713.5  0.8785
      713.9  0.8780
      714.4  0.8706
      714.9  0.8681
      715.3  0.8690
      715.8  0.8599
      716.3  0.8434
      716.8  0.8245
      717.2  0.8056
      717.7  0.7986
      718.2  0.7966
      718.6  0.7898
      719.1  0.7869
      719.6  0.7941
      720.1  0.8188
      720.5  0.8388
      721.0  0.8465
      721.5  0.8539
      722.0  0.8446
      722.4  0.8291
      722.9  0.8210
      723.4  0.8157
      723.8  0.8121
      724.3  0.8145
      724.8  0.8155
      725.3  0.8192
      725.7  0.8203
      726.2  0.8213
      726.7  0.8161
      727.1  0.8171
      727.6  0.8181
      728.1  0.8250
      728.6  0.8278
      729.0  0.8288
      729.5  0.8319
      730.0  0.8328
      730.4  0.8337
      730.9  0.8426
      731.4  0.8498
      731.9  0.8506
      732.3  0.8515
      732.8  0.8525
      733.3  0.8534
      733.8  0.8564
      734.2  0.8572
      734.7  0.8580
      735.2  0.8579
      735.6  0.8586
      736.1  0.8594
      736.6  0.8641
      737.1  0.8648
      737.5  0.8709
      738.0  0.8711
      738.5  0.8712
      738.9  0.8714
      739.4  0.8765
      739.9  0.8766
      740.4  0.8768
      740.8  0.8819
      741.3  0.8820
      741.8  0.8822
      742.3  0.8823
      742.7  0.8874
      743.2  0.8876
      743.7  0.8877
      744.1  0.8879
      744.6  0.8880
      745.1  0.8882
      745.6  0.8883
      746.0  0.8885
      746.5  0.8886
      747.0  0.8888
      747.4  0.8889
      747.9  0.8891
      748.4  0.8892
      748.9  0.8894
      749.3  0.8895
      749.8  0.8897
      750.3  0.8898
      750.7  0.8900
      751.2  0.8901
      751.7  0.8903
      752.2  0.8904
      752.6  0.8906
      753.1  0.8907
      753.6  0.8909
      754.1  0.8910
      754.5  0.8912
      755.0  0.8913
      755.5  0.8863
      755.9  0.8787
      756.4  0.8791
      756.9  0.8780
      757.4  0.8799
      757.8  0.8647
      758.3  0.7879
      758.8  0.6633
      759.2  0.5372
      759.7  0.4568
      760.2  0.4690
      760.7  0.5418
      761.1  0.5846
      761.6  0.5907
      762.1  0.5760
      762.5  0.5590
      763.0  0.5720
      763.5  0.6121
      764.0  0.6580
      764.4  0.7026
      764.9  0.7440
      765.4  0.7756
      765.9  0.7970
      766.3  0.8184
      766.8  0.8422
      767.3  0.8627
      767.7  0.8777
      768.2  0.8827
      768.7  0.8837
      769.2  0.8840
      769.6  0.8856
      770.1  0.8949
      770.6  0.8963
      771.0  0.8964
      771.5  0.8966
      772.0  0.8967
      772.5  0.8969
      772.9  0.8970
      773.4  0.8972
      773.9  0.8973
      774.4  0.8975
      774.8  0.8976
      775.3  0.8978
      775.8  0.8979
      776.2  0.8981
      776.7  0.8982
      777.2  0.8984
      777.7  0.8985
      778.1  0.8987
      778.6  0.8988
      779.1  0.8990
      779.5  0.8991
      780.0  0.8993
      780.5  0.8995
      781.0  0.8996
      781.4  0.8998
      781.9  0.8999
      782.4  0.9001
      782.8  0.9002
      783.3  0.9004
      783.8  0.9005
      784.3  0.9007
      784.7  0.9008
      785.2  0.9010
      785.7  0.9011
      786.2  0.9013
      786.6  0.9014
      787.1  0.9016
      787.6  0.9017
      788.0  0.9019
      788.5  0.9020
      789.0  0.9022
      789.5  0.9023
      789.9  0.9025
      790.4  0.9026
      790.9  0.9028
      791.3  0.9029
      791.8  0.9031
      792.3  0.9032
      792.8  0.9034
      793.2  0.9035
      793.7  0.9037
      794.2  0.9038
      794.6  0.9040
      795.1  0.9041
      795.6  0.9043
      796.1  0.9044
      796.5  0.9046
      797.0  0.9047
      797.5  0.9049
      798.0  0.9050
      798.4  0.9052
      798.9  0.9053
      799.4  0.9055
      799.8  0.9056
      800.0  0.8924
      800.5  0.8950
      801.0  0.8951
      801.5  0.8961
      802.0  0.8980
      802.5  0.8969
      803.0  0.8970
      803.5  0.8983
      804.0  0.8987
      804.5  0.8989
      805.0  0.9015
      805.5  0.9042
      806.0  0.9048
      806.5  0.9045
      807.0  0.9044
      807.5  0.9046
      808.0  0.9045
      808.5  0.9034
      809.0  0.9027
      809.5  0.9014
      810.0  0.9014
      810.5  0.9026
      811.0  0.9002
      811.5  0.8971
      812.0  0.8956
      812.5  0.8926
      813.0  0.8840
      813.5  0.8694
      814.0  0.8657
      814.5  0.8615
      815.0  0.8508
      815.5  0.8415
      816.0  0.8314
      816.5  0.8149
      817.0  0.8241
      817.5  0.8357
      818.0  0.8250
      818.5  0.8363
      819.0  0.8449
      819.5  0.8444
      820.0  0.8486
      820.5  0.8739
      821.0  0.8922
      821.5  0.8877
      822.0  0.8749
      822.5  0.8317
      823.0  0.7744
      823.5  0.8013
      824.0  0.8593
      824.5  0.8778
      825.0  0.8901
      825.5  0.8839
      826.0  0.8716
      826.5  0.8826
      827.0  0.8870
      827.5  0.8626
      828.0  0.8505
      828.5  0.8587
      829.0  0.8609
      829.5  0.8653
      830.0  0.8742
      830.5  0.8745
      831.0  0.8821
      831.5  0.8852
      832.0  0.8727
      832.5  0.8762
      833.0  0.8905
      833.5  0.8929
      834.0  0.8935
      834.5  0.9008
      835.0  0.9055
      835.5  0.9030
      836.0  0.9025
      836.5  0.9057
      837.0  0.9083
      837.5  0.9081
      838.0  0.9089
      838.5  0.9109
      839.0  0.9119
      839.5  0.9133
      840.0  0.9139
      840.5  0.9133
      841.0  0.9119
      841.5  0.9126
      842.0  0.9140
      842.5  0.9162
      843.0  0.9164
      843.5  0.9152
      844.0  0.9153
      844.5  0.9166
      845.0  0.9178
      845.5  0.9185
      846.0  0.9184
      846.5  0.9186
      847.0  0.9195
      847.5  0.9197
      848.0  0.9189
      848.5  0.9187
      849.0  0.9188
      849.5  0.9191
      850.0  0.9194
      850.5  0.9195
      851.0  0.9189
      851.5  0.9184
      852.0  0.9192
      852.5  0.9201
      853.0  0.9208
      853.5  0.9208
      854.0  0.9205
      854.5  0.9208
      855.0  0.9214
      855.5  0.9216
      856.0  0.9219
      856.5  0.9224
      857.0  0.9225
      857.5  0.9223
      858.0  0.9228
      858.5  0.9232
      859.0  0.9233
      859.5  0.9234
      860.0  0.9237
      860.5  0.9239
      861.0  0.9239
      861.5  0.9241
      862.0  0.9243
      862.5  0.9244
      863.0  0.9245
      863.5  0.9247
      864.0  0.9248
      864.5  0.9250
      865.0  0.9251
      865.5  0.9253
      866.0  0.9254
      866.5  0.9255
      867.0  0.9257
      867.5  0.9258
      868.0  0.9259
      868.5  0.9261
      869.0  0.9262
      869.5  0.9263
      870.0  0.9265
      870.5  0.9266
      871.0  0.9267
      871.5  0.9269
      872.0  0.9270
      872.5  0.9271
      873.0  0.9273
      873.5  0.9274
      874.0  0.9275
      874.5  0.9277
      875.0  0.9278
      875.5  0.9279
      876.0  0.9280
      876.5  0.9281
      877.0  0.9283
      877.5  0.9284
      878.0  0.9284
      878.5  0.9284
      879.0  0.9287
      879.5  0.9289
      880.0  0.9289
      880.5  0.9288
      881.0  0.9289
      881.5  0.9290
      882.0  0.9289
      882.5  0.9291
      883.0  0.9293
      883.5  0.9292
      884.0  0.9294
      884.5  0.9298
      885.0  0.9298
      885.5  0.9289
      886.0  0.9279
      886.5  0.9286
      887.0  0.9295
      887.5  0.9296
      888.0  0.9283
      888.5  0.9288
      889.0  0.9304
      889.5  0.9301
      890.0  0.9292
      890.5  0.9296
      891.0  0.9301
      891.5  0.9293
      892.0  0.9274
      892.5  0.9268
      893.0  0.9210
      893.5  0.9174
      894.0  0.9182
      894.5  0.9127
      895.0  0.9010
      895.5  0.8856
      896.0  0.8757
      896.5  0.8567
      897.0  0.8459
      897.5  0.8444
      898.0  0.8543
      898.5  0.8369
      899.0  0.7827
      899.5  0.7976
     900.0000      0.9952804    
     900.0200      0.9951046    
     900.0400      0.9951361    
     900.0600      0.9937428    
     900.0800      0.9919614    
     900.1000      0.9897799    
     900.1199      0.9808285    
     900.1400      0.9742768    
     900.1600      0.9779161    
     900.1800      0.9749640    
     900.2000      0.9578809    
     900.2200      0.9023946    
     900.2400      0.7393250    
     900.2599      0.4527205    
     900.2800      0.3267275    
     900.3000      0.4706405    
     900.3200      0.5909129    
     900.3400      0.7734483    
     900.3600      0.9164778    
     900.3799      0.9629779    
     900.4000      0.9787590    
     900.4199      0.9849378    
     900.4400      0.9873870    
     900.4600      0.9880669    
     900.4800      0.9877954    
     900.5000      0.9864879    
     900.5200      0.9830430    
     900.5400      0.9739649    
     900.5599      0.9396281    
     900.5800      0.8016257    
     900.6000      0.5378305    
     900.6200      0.3996675    
     900.6400      0.4760749    
     900.6600      0.7266551    
     900.6800      0.9134138    
     900.7000      0.9692987    
     900.7200      0.9829168    
     900.7400      0.9876924    
     900.7600      0.9901918    
     900.7800      0.9902032    
     900.8000      0.9811088    
     900.8199      0.9706278    
     900.8400      0.9798843    
     900.8599      0.9887705    
     900.8800      0.9835283    
     900.9000      0.9443867    
     900.9200      0.8531506    
     900.9400      0.7780221    
     900.9600      0.7399811    
     900.9800      0.7047534    
     900.9999      0.6250857    
     901.0200      0.6993073    
     901.0400      0.8334878    
     901.0600      0.9393657    
     901.0800      0.9804589    
     901.1000      0.9841673    
     901.1199      0.9548912    
     901.1400      0.8725991    
     901.1600      0.8621404    
     901.1800      0.9463992    
     901.2000      0.9867045    
     901.2200      0.9934323    
     901.2400      0.9930193    
     901.2599      0.9888483    
     901.2800      0.9877033    
     901.2999      0.9903879    
     901.3200      0.9885499    
     901.3400      0.9821839    
     901.3600      0.9723853    
     901.3800      0.9345130    
     901.4000      0.7779148    
     901.4200      0.4789957    
     901.4399      0.4183949    
     901.4600      0.7017103    
     901.4800      0.9082141    
     901.5000      0.9674478    
     901.5200      0.9815478    
     901.5400      0.9848262    
     901.5599      0.9831094    
     901.5800      0.9696893    
     901.6000      0.9573022    
     901.6200      0.9735771    
     901.6400      0.9855294    
     901.6600      0.9869885    
     901.6800      0.9904379    
     901.7000      0.9922189    
     901.7200      0.9916677    
     901.7399      0.9901713    
     901.7600      0.9878470    
     901.7800      0.9840716    
     901.8000      0.9772802    
     901.8200      0.9642797    
     901.8400      0.9331536    
     901.8600      0.8569371    
     901.8799      0.6666952    
     901.9000      0.3384758    
     901.9200      0.1742766    
     901.9400      0.3698038    
     901.9600      0.6965360    
     901.9800      0.8785873    
     901.9999      0.9411012    
     902.0200      0.9515429    
     902.0400      0.9151757    
     902.0600      0.8890855    
     902.0800      0.9361974    
     902.1000      0.9763797    
     902.1200      0.9884260    
     902.1400      0.9914725    
     902.1600      0.9927869    
     902.1799      0.9935383    
     902.2000      0.9938431    
     902.2200      0.9932531    
     902.2400      0.9883842    
     902.2600      0.9779997    
     902.2800      0.9794014    
     902.3000      0.9891431    
     902.3199      0.9916230    
     902.3400      0.9885047    
     902.3600      0.9857134    
     902.3800      0.9865246    
     902.4000      0.9835582    
     902.4200      0.9720585    
     902.4399      0.9539753    
     902.4600      0.9123356    
     902.4799      0.7555116    
     902.5000      0.4718347    
     902.5200      0.4461086    
     902.5400      0.7237569    
     902.5600      0.9055282    
     902.5800      0.9599042    
     902.6000      0.9760846    
     902.6199      0.9826081    
     902.6400      0.9854454    
     902.6600      0.9855024    
     902.6800      0.9797602    
     902.7000      0.9673910    
     902.7200      0.9626303    
     902.7400      0.9577356    
     902.7599      0.9247041    
     902.7800      0.8780071    
     902.8000      0.7734208    
     902.8200      0.5016893    
     902.8400      0.3326285    
     902.8600      0.5567427    
     902.8799      0.8240739    
     902.9000      0.9318504    
     902.9199      0.9626715    
     902.9400      0.9714720    
     902.9600      0.9787313    
     902.9800      0.9864302    
     903.0000      0.9906219    
     903.0200      0.9924999    
     903.0400      0.9935400    
     903.0599      0.9938357    
     903.0800      0.9919228    
     903.1000      0.9878297    
     903.1200      0.9875608    
     903.1400      0.9833246    
     903.1600      0.9407567    
     903.1800      0.8622686    
     903.2000      0.8841259    
     903.2200      0.9609264    
     903.2400      0.9854696    
     903.2600      0.9807442    
     903.2800      0.9723850    
     903.3000      0.9790233    
     903.3199      0.9822411    
     903.3400      0.9580400    
     903.3599      0.8455363    
     903.3800      0.6531886    
     903.4000      0.6903390    
     903.4200      0.8809355    
     903.4400      0.9614105    
     903.4600      0.9723771    
     903.4800      0.9794294    
     903.4999      0.9909980    
     903.5200      0.9957267    
