# Atmospheric transmission in the optical: 310-1100nm
# 1.6mm H2O,  sec z = 1.0
# Adopted average extinction used for Rayleigh scattering,
# no dependence on H2O content included for Rayleigh scattering.
# Atmospheric absorption lines for 600-800nm are based on observations 
# from McDonald Observatory, scaled for H2O content and airmass.
# Atmospheric absorption lines for 800-1100nm are from ATRAN models
# run by Tom Geballe.
# No atmospheric absorption lines are included for wavelengths < 600nm
# 
# Author: Inger Jorgensen
# Created: 21 Feb 2001
# 
#  Table mkskytrans_opt.tab  Wed 17:07:00 21-Feb-2001
# wavelength tr_1610
#     [nm]         

      310.0  0.2830
      320.0  0.4700
      340.0  0.6250
      360.0  0.7110
      380.0  0.7590
      400.0  0.7940
      450.0  0.8550
      500.0  0.8870
      550.0  0.8950
      580.3  0.8979
      580.8  0.8979
      581.3  0.8980
      581.7  0.8980
      582.2  0.8980
      582.7  0.8980
      583.2  0.8981
      583.6  0.8981
      584.1  0.8981
      584.6  0.8982
      585.1  0.8982
      585.5  0.8982
      586.0  0.8983
      586.5  0.8983
      586.9  0.8983
      587.4  0.8984
      587.9  0.8984
      588.4  0.8984
      588.8  0.8985
      589.3  0.8985
      589.8  0.8985
      590.2  0.8986
      590.7  0.8986
      591.2  0.8987
      591.7  0.8987
      592.1  0.8987
      592.6  0.8988
      593.1  0.8988
      593.5  0.8988
      594.0  0.8989
      594.5  0.8989
      595.0  0.8990
      595.4  0.8990
      595.9  0.8990
      596.4  0.8991
      596.9  0.8991
      597.3  0.8992
      597.8  0.8992
      598.3  0.8992
      598.7  0.8993
      599.2  0.8993
      599.7  0.8994
      600.2  0.8994
      600.6  0.8995
      601.1  0.8995
      601.6  0.8995
      602.0  0.8996
      602.5  0.8996
      603.0  0.8997
      603.5  0.8997
      603.9  0.8998
      604.4  0.8998
      604.9  0.8999
      605.4  0.8999
      605.8  0.9000
      606.3  0.9000
      606.8  0.9001
      607.2  0.9001
      607.7  0.9001
      608.2  0.9002
      608.7  0.9002
      609.1  0.9003
      609.6  0.9003
      610.1  0.9004
      610.5  0.9004
      611.0  0.9005
      611.5  0.9005
      612.0  0.9006
      612.4  0.9006
      612.9  0.9007
      613.4  0.9008
      613.8  0.9008
      614.3  0.9009
      614.8  0.9009
      615.3  0.9010
      615.7  0.9010
      616.2  0.9011
      616.7  0.9011
      617.2  0.9012
      617.6  0.9012
      618.1  0.9013
      618.6  0.9013
      619.0  0.9014
      619.5  0.9015
      620.0  0.9015
      620.5  0.9008
      620.9  0.9003
      621.4  0.9016
      621.9  0.9004
      622.3  0.8993
      622.8  0.8991
      623.3  0.8979
      623.8  0.8977
      624.2  0.8980
      624.7  0.8970
      625.2  0.8992
      625.6  0.8986
      626.1  0.8965
      626.6  0.8961
      627.1  0.8894
      627.5  0.8829
      628.0  0.8795
      628.5  0.8790
      629.0  0.8824
      629.4  0.8825
      629.9  0.8841
      630.4  0.8858
      630.8  0.8867
      631.3  0.8902
      631.8  0.8913
      632.3  0.8927
      632.7  0.8941
      633.2  0.8955
      633.7  0.8957
      634.1  0.8962
      634.6  0.8977
      635.1  0.8981
      635.6  0.8987
      636.0  0.8992
      636.5  0.9004
      637.0  0.8989
      637.5  0.9003
      637.9  0.9039
      638.4  0.9039
      638.9  0.9040
      639.3  0.9041
      639.8  0.9041
      640.3  0.9042
      640.8  0.9043
      641.2  0.9043
      641.7  0.9044
      642.2  0.9045
      642.6  0.9045
      643.1  0.9046
      643.6  0.9047
      644.1  0.9047
      644.5  0.9048
      645.0  0.9049
      645.5  0.9050
      645.9  0.9050
      646.4  0.9051
      646.9  0.9052
      647.4  0.9052
      647.8  0.9053
      648.3  0.9054
      648.8  0.9055
      649.3  0.9055
      649.7  0.9056
      650.2  0.9057
      650.7  0.9057
      651.1  0.9058
      651.6  0.9059
      652.1  0.9060
      652.6  0.9060
      653.0  0.9061
      653.5  0.9062
      654.0  0.9063
      654.4  0.9063
      654.9  0.9064
      655.4  0.9065
      655.9  0.9066
      656.3  0.9066
      656.8  0.9067
      657.3  0.9068
      657.7  0.9069
      658.2  0.9070
      658.7  0.9070
      659.2  0.9071
      659.6  0.9072
      660.1  0.9073
      660.6  0.9073
      661.1  0.9074
      661.5  0.9075
      662.0  0.9076
      662.5  0.9077
      662.9  0.9077
      663.4  0.9078
      663.9  0.9079
      664.4  0.9080
      664.8  0.9081
      665.3  0.9081
      665.8  0.9082
      666.2  0.9083
      666.7  0.9084
      667.2  0.9085
      667.7  0.9085
      668.1  0.9086
      668.6  0.9087
      669.1  0.9088
      669.6  0.9089
      670.0  0.9089
      670.5  0.9090
      671.0  0.9091
      671.4  0.9092
      671.9  0.9093
      672.4  0.9094
      672.9  0.9094
      673.3  0.9095
      673.8  0.9096
      674.3  0.9097
      674.7  0.9098
      675.2  0.9099
      675.7  0.9100
      676.2  0.9100
      676.6  0.9101
      677.1  0.9102
      677.6  0.9103
      678.0  0.9104
      678.5  0.9105
      679.0  0.9105
      679.5  0.9106
      679.9  0.9107
      680.4  0.9108
      680.9  0.9109
      681.4  0.9110
      681.8  0.9111
      682.3  0.9112
      682.8  0.9112
      683.2  0.9113
      683.7  0.9114
      684.2  0.9115
      684.7  0.9116
      685.1  0.9117
      685.6  0.8963
      686.1  0.8407
      686.5  0.7911
      687.0  0.7795
      687.5  0.7940
      688.0  0.8145
      688.4  0.8266
      688.9  0.8290
      689.4  0.8371
      689.9  0.8466
      690.3  0.8578
      690.8  0.8723
      691.3  0.8833
      691.7  0.8924
      692.2  0.8968
      692.7  0.8985
      693.2  0.8993
      693.6  0.9031
      694.1  0.9057
      694.6  0.9053
      695.0  0.9077
      695.5  0.9119
      696.0  0.9138
      696.5  0.9138
      696.9  0.9139
      697.4  0.9140
      697.9  0.9141
      698.3  0.9142
      698.8  0.9143
      699.3  0.9144
      699.8  0.9145
      700.2  0.9146
      700.7  0.9147
      701.2  0.9148
      701.7  0.9149
      702.1  0.9150
      702.6  0.9151
      703.1  0.9152
      703.5  0.9152
      704.0  0.9153
      704.5  0.9154
      705.0  0.9155
      705.4  0.9156
      705.9  0.9157
      706.4  0.9158
      706.8  0.9159
      707.3  0.9160
      707.8  0.9161
      708.3  0.9162
      708.7  0.9163
      709.2  0.9164
      709.7  0.9165
      710.1  0.9166
      710.6  0.9167
      711.1  0.9168
      711.6  0.9169
      712.0  0.9170
      712.5  0.9171
      713.0  0.9172
      713.5  0.9173
      713.9  0.9168
      714.4  0.9111
      714.9  0.9091
      715.3  0.9098
      715.8  0.9028
      716.3  0.8900
      716.8  0.8754
      717.2  0.8608
      717.7  0.8554
      718.2  0.8538
      718.6  0.8485
      719.1  0.8463
      719.6  0.8518
      720.1  0.8709
      720.5  0.8864
      721.0  0.8923
      721.5  0.8980
      722.0  0.8908
      722.4  0.8788
      722.9  0.8726
      723.4  0.8685
      723.8  0.8657
      724.3  0.8675
      724.8  0.8683
      725.3  0.8711
      725.7  0.8719
      726.2  0.8727
      726.7  0.8687
      727.1  0.8695
      727.6  0.8702
      728.1  0.8756
      728.6  0.8777
      729.0  0.8784
      729.5  0.8809
      730.0  0.8816
      730.4  0.8822
      730.9  0.8891
      731.4  0.8946
      731.9  0.8953
      732.3  0.8959
      732.8  0.8967
      733.3  0.8974
      733.8  0.8997
      734.2  0.9003
      734.7  0.9009
      735.2  0.9008
      735.6  0.9014
      736.1  0.9020
      736.6  0.9056
      737.1  0.9061
      737.5  0.9108
      738.0  0.9109
      738.5  0.9110
      738.9  0.9111
      739.4  0.9151
      739.9  0.9152
      740.4  0.9153
      740.8  0.9192
      741.3  0.9193
      741.8  0.9194
      742.3  0.9195
      742.7  0.9235
      743.2  0.9236
      743.7  0.9237
      744.1  0.9238
      744.6  0.9239
      745.1  0.9240
      745.6  0.9241
      746.0  0.9242
      746.5  0.9243
      747.0  0.9244
      747.4  0.9245
      747.9  0.9246
      748.4  0.9247
      748.9  0.9248
      749.3  0.9249
      749.8  0.9250
      750.3  0.9251
      750.7  0.9252
      751.2  0.9253
      751.7  0.9254
      752.2  0.9255
      752.6  0.9256
      753.1  0.9257
      753.6  0.9258
      754.1  0.9259
      754.5  0.9260
      755.0  0.9261
      755.5  0.9213
      755.9  0.9142
      756.4  0.9145
      756.9  0.9134
      757.4  0.9152
      757.8  0.9008
      758.3  0.8282
      758.8  0.7105
      759.2  0.5915
      759.7  0.5155
      760.2  0.5270
      760.7  0.5957
      761.1  0.6361
      761.6  0.6418
      762.1  0.6279
      762.5  0.6119
      763.0  0.6241
      763.5  0.6620
      764.0  0.7053
      764.4  0.7473
      764.9  0.7864
      765.4  0.8161
      765.9  0.8363
      766.3  0.8565
      766.8  0.8789
      767.3  0.8982
      767.7  0.9122
      768.2  0.9170
      768.7  0.9179
      769.2  0.9181
      769.6  0.9196
      770.1  0.9284
      770.6  0.9296
      771.0  0.9297
      771.5  0.9298
      772.0  0.9299
      772.5  0.9300
      772.9  0.9301
      773.4  0.9302
      773.9  0.9303
      774.4  0.9304
      774.8  0.9305
      775.3  0.9306
      775.8  0.9307
      776.2  0.9308
      776.7  0.9309
      777.2  0.9310
      777.7  0.9311
      778.1  0.9312
      778.6  0.9313
      779.1  0.9315
      779.5  0.9316
      780.0  0.9317
      780.5  0.9318
      781.0  0.9319
      781.4  0.9320
      781.9  0.9321
      782.4  0.9322
      782.8  0.9323
      783.3  0.9324
      783.8  0.9325
      784.3  0.9326
      784.7  0.9327
      785.2  0.9328
      785.7  0.9329
      786.2  0.9330
      786.6  0.9331
      787.1  0.9332
      787.6  0.9333
      788.0  0.9334
      788.5  0.9335
      789.0  0.9336
      789.5  0.9337
      789.9  0.9338
      790.4  0.9340
      790.9  0.9341
      791.3  0.9342
      791.8  0.9343
      792.3  0.9344
      792.8  0.9345
      793.2  0.9346
      793.7  0.9347
      794.2  0.9348
      794.6  0.9349
      795.1  0.9350
      795.6  0.9351
      796.1  0.9352
      796.5  0.9353
      797.0  0.9354
      797.5  0.9355
      798.0  0.9356
      798.4  0.9357
      798.9  0.9358
      799.4  0.9359
      799.8  0.9360
      800.0  0.9332
      800.5  0.9338
      801.0  0.9339
      801.5  0.9342
      802.0  0.9347
      802.5  0.9346
      803.0  0.9347
      803.5  0.9350
      804.0  0.9352
      804.5  0.9353
      805.0  0.9359
      805.5  0.9366
      806.0  0.9368
      806.5  0.9368
      807.0  0.9369
      807.5  0.9370
      808.0  0.9371
      808.5  0.9369
      809.0  0.9368
      809.5  0.9366
      810.0  0.9367
      810.5  0.9370
      811.0  0.9365
      811.5  0.9358
      812.0  0.9356
      812.5  0.9348
      813.0  0.9324
      813.5  0.9283
      814.0  0.9273
      814.5  0.9262
      815.0  0.9231
      815.5  0.9195
      816.0  0.9141
      816.5  0.9069
      817.0  0.9101
      817.5  0.9143
      818.0  0.9115
      818.5  0.9159
      819.0  0.9174
      819.5  0.9167
      820.0  0.9194
      820.5  0.9291
      821.0  0.9355
      821.5  0.9344
      822.0  0.9301
      822.5  0.9149
      823.0  0.8942
      823.5  0.9043
      824.0  0.9250
      824.5  0.9309
      825.0  0.9345
      825.5  0.9326
      826.0  0.9289
      826.5  0.9330
      827.0  0.9342
      827.5  0.9264
      828.0  0.9223
      828.5  0.9241
      829.0  0.9249
      829.5  0.9275
      830.0  0.9309
      830.5  0.9307
      831.0  0.9331
      831.5  0.9346
      832.0  0.9305
      832.5  0.9313
      833.0  0.9363
      833.5  0.9374
      834.0  0.9375
      834.5  0.9395
      835.0  0.9410
      835.5  0.9405
      836.0  0.9404
      836.5  0.9412
      837.0  0.9419
      837.5  0.9420
      838.0  0.9423
      838.5  0.9428
      839.0  0.9431
      839.5  0.9435
      840.0  0.9437
      840.5  0.9436
      841.0  0.9434
      841.5  0.9436
      842.0  0.9440
      842.5  0.9446
      843.0  0.9447
      843.5  0.9445
      844.0  0.9446
      844.5  0.9449
      845.0  0.9453
      845.5  0.9455
      846.0  0.9455
      846.5  0.9456
      847.0  0.9459
      847.5  0.9460
      848.0  0.9459
      848.5  0.9459
      849.0  0.9460
      849.5  0.9461
      850.0  0.9463
      850.5  0.9464
      851.0  0.9463
      851.5  0.9463
      852.0  0.9465
      852.5  0.9468
      853.0  0.9470
      853.5  0.9471
      854.0  0.9470
      854.5  0.9472
      855.0  0.9474
      855.5  0.9475
      856.0  0.9476
      856.5  0.9478
      857.0  0.9479
      857.5  0.9479
      858.0  0.9480
      858.5  0.9482
      859.0  0.9483
      859.5  0.9484
      860.0  0.9485
      860.5  0.9486
      861.0  0.9487
      861.5  0.9488
      862.0  0.9489
      862.5  0.9490
      863.0  0.9491
      863.5  0.9492
      864.0  0.9493
      864.5  0.9494
      865.0  0.9495
      865.5  0.9495
      866.0  0.9496
      866.5  0.9497
      867.0  0.9498
      867.5  0.9499
      868.0  0.9500
      868.5  0.9501
      869.0  0.9502
      869.5  0.9503
      870.0  0.9504
      870.5  0.9505
      871.0  0.9506
      871.5  0.9507
      872.0  0.9507
      872.5  0.9508
      873.0  0.9509
      873.5  0.9510
      874.0  0.9511
      874.5  0.9512
      875.0  0.9513
      875.5  0.9514
      876.0  0.9515
      876.5  0.9516
      877.0  0.9516
      877.5  0.9517
      878.0  0.9518
      878.5  0.9519
      879.0  0.9520
      879.5  0.9521
      880.0  0.9521
      880.5  0.9522
      881.0  0.9523
      881.5  0.9523
      882.0  0.9524
      882.5  0.9525
      883.0  0.9526
      883.5  0.9526
      884.0  0.9528
      884.5  0.9529
      885.0  0.9529
      885.5  0.9528
      886.0  0.9527
      886.5  0.9529
      887.0  0.9531
      887.5  0.9532
      888.0  0.9530
      888.5  0.9531
      889.0  0.9535
      889.5  0.9535
      890.0  0.9534
      890.5  0.9535
      891.0  0.9537
      891.5  0.9536
      892.0  0.9532
      892.5  0.9531
      893.0  0.9518
      893.5  0.9509
      894.0  0.9511
      894.5  0.9498
      895.0  0.9465
      895.5  0.9415
      896.0  0.9379
      896.5  0.9313
      897.0  0.9277
      897.5  0.9274
      898.0  0.9289
      898.5  0.9202
      899.0  0.8995
      899.5  0.9047
     900.0000      0.9992898    
     900.0200      0.9992350    
     900.0400      0.9991180    
     900.0600      0.9988194    
     900.0800      0.9984767    
     900.1000      0.9980385    
     900.1199      0.9961009    
     900.1400      0.9946978    
     900.1600      0.9954432    
     900.1800      0.9946322    
     900.2000      0.9905114    
     900.2200      0.9755360    
     900.2400      0.9114859    
     900.2599      0.7429478    
     900.2800      0.6596524    
     900.3000      0.7892773    
     900.3200      0.8728410    
     900.3400      0.9357832    
     900.3600      0.9795090    
     900.3799      0.9918461    
     900.4000      0.9953656    
     900.4199      0.9966304    
     900.4400      0.9971588    
     900.4600      0.9973729    
     900.4800      0.9974180    
     900.5000      0.9971787    
     900.5200      0.9963594    
     900.5400      0.9942128    
     900.5599      0.9847459    
     900.5800      0.9370005    
     900.6000      0.8345588    
     900.6200      0.7841014    
     900.6400      0.8185871    
     900.6600      0.9143921    
     900.6800      0.9775320    
     900.7000      0.9933220    
     900.7200      0.9966045    
     900.7400      0.9977389    
     900.7600      0.9983435    
     900.7800      0.9983412    
     900.8000      0.9963365    
     900.8199      0.9940342    
     900.8400      0.9960638    
     900.8599      0.9980330    
     900.8800      0.9967200    
     900.9000      0.9871475    
     900.9200      0.9644474    
     900.9400      0.9441290    
     900.9600      0.9317382    
     900.9800      0.9148325    
     900.9999      0.8835110    
     901.0200      0.9127675    
     901.0400      0.9574789    
     901.0600      0.9858953    
     901.0800      0.9962026    
     901.1000      0.9970672    
     901.1199      0.9896964    
     901.1400      0.9688549    
     901.1600      0.9661700    
     901.1800      0.9874587    
     901.2000      0.9974446    
     901.2200      0.9989997    
     901.2400      0.9989219    
     901.2599      0.9979672    
     901.2800      0.9976490    
     901.2999      0.9982046    
     901.3200      0.9977699    
     901.3400      0.9963375    
     901.3600      0.9940695    
     901.3800      0.9835770    
     901.4000      0.9291038    
     901.4200      0.8042259    
     901.4399      0.7724653    
     901.4600      0.8950203    
     901.4800      0.9748253    
     901.5000      0.9927858    
     901.5200      0.9961380    
     901.5400      0.9969060    
     901.5599      0.9965222    
     901.5800      0.9936134    
     901.6000      0.9910234    
     901.6200      0.9946439    
     901.6400      0.9972456    
     901.6600      0.9975489    
     901.6800      0.9982869    
     901.7000      0.9986109    
     901.7200      0.9984105    
     901.7399      0.9980295    
     901.7600      0.9974817    
     901.7800      0.9966430    
     901.8000      0.9951476    
     901.8200      0.9921231    
     901.8400      0.9846295    
     901.8600      0.9625814    
     901.8799      0.8800631    
     901.9000      0.6884826    
     901.9200      0.5560993    
     901.9400      0.6845161    
     901.9600      0.8887457    
     901.9800      0.9686025    
     901.9999      0.9865470    
     902.0200      0.9890590    
     902.0400      0.9806326    
     902.0600      0.9746643    
     902.0800      0.9857149    
     902.1000      0.9950097    
     902.1200      0.9977584    
     902.1400      0.9985146    
     902.1600      0.9988946    
     902.1799      0.9991637    
     902.2000      0.9992930    
     902.2200      0.9990586    
     902.2400      0.9978525    
     902.2600      0.9955752    
     902.2800      0.9958692    
     902.3000      0.9979962    
     902.3199      0.9985941    
     902.3400      0.9979744    
     902.3600      0.9974105    
     902.3800      0.9975789    
     902.4000      0.9969109    
     902.4200      0.9943389    
     902.4399      0.9901761    
     902.4600      0.9780481    
     902.4799      0.9147862    
     902.5000      0.7697082    
     902.5200      0.7553560    
     902.5400      0.8997106    
     902.5600      0.9749131    
     902.5800      0.9909042    
     902.6000      0.9946886    
     902.6199      0.9961759    
     902.6400      0.9968406    
     902.6600      0.9969264    
     902.6800      0.9957398    
     902.7000      0.9930759    
     902.7200      0.9920714    
     902.7400      0.9908839    
     902.7599      0.9829448    
     902.7800      0.9707244    
     902.8000      0.9273524    
     902.8200      0.7726521    
     902.8400      0.6587188    
     902.8600      0.8050824    
     902.8799      0.9454641    
     902.9000      0.9839776    
     902.9199      0.9918205    
     902.9400      0.9939083    
     902.9600      0.9955838    
     902.9800      0.9973002    
     903.0000      0.9982049    
     903.0200      0.9986275    
     903.0400      0.9988917    
     903.0599      0.9990191    
     903.0800      0.9986478    
     903.1000      0.9976760    
     903.1200      0.9975273    
     903.1400      0.9964266    
     903.1600      0.9860859    
     903.1800      0.9668832    
     903.2000      0.9722863    
     903.2200      0.9911431    
     903.2400      0.9971823    
     903.2600      0.9962268    
     903.2800      0.9944133    
     903.3000      0.9958677    
     903.3199      0.9964651    
     903.3400      0.9900360    
     903.3599      0.9559548    
     903.3800      0.8924266    
     903.4000      0.9051231    
     903.4200      0.9674679    
     903.4400      0.9912197    
     903.4600      0.9941159    
     903.4800      0.9956584    
     903.4999      0.9981977    
     903.5200      0.9992463    
